Data,
Lateral(mm),Height Data(nm)
0,-10.34772125
5.55E-05,-9.410343367
0.0001110864252,-8.680071182
0.0001666296378,-8.219188723
0.0002221728504,-7.886959272
0.000277716063,-7.416579275
0.0003332592756,-6.911263886
0.0003888024882,-6.434645053
0.0004443457008,-5.961148525
0.0004998889134,-5.436051937
0.000555432126,-4.691497613
0.0006109753387,-4.130476256
0.0006665185513,-3.507255564
0.0007220617639,-3.077968516
0.0007776049765,-2.312243805
0.0008331481891,-1.691415126
0.0008886914017,-1.067128667
0.0009442346143,-0.7723713998
0.0009997778269,-0.4259916719
0.001055321039,-0.04556180877
0.001110864252,0.5764983707
0.001166407465,0.8892204786
0.001221950677,1.207975373
0.00127749389,1.201577971
0.001333037103,1.298746196
0.001388580315,1.564463776
0.001444123528,1.511659871
0.00149966674,1.243413897
0.001555209953,1.140519967
0.001610753166,0.9668619806
0.001666296378,0.8413521412
0.001721839591,0.5417349442
0.001777382803,0.1510966405
0.001832926016,-0.3199285524
0.001888469229,-0.5939368468
0.001944012441,-0.5946628543
0.001999555654,-1.041212759
0.002055098866,-1.345601121
0.002110642079,-1.449091107
0.002166185292,-1.187220865
0.002221728504,-0.8603892878
0.002277271717,-0.554175392
0.002332814929,-0.1060963855
0.002388358142,0.5053613195
0.002443901355,1.579424096
0.002499444567,2.399414163
0.00255498778,3.195499024
0.002610530992,4.267907777
0.002666074205,5.673256888
0.002721617418,7.020232278
0.00277716063,7.998274449
0.002832703843,9.094320528
0.002888247055,10.46650951
0.002943790268,11.79908349
0.002999333481,13.00666826
0.003054876693,14.35488177
0.003110419906,15.62947159
0.003165963118,16.88259721
0.003221506331,18.36143912
0.003277049544,19.72936897
0.003332592756,21.19450868
0.003388135969,22.76843308
0.003443679181,24.52167536
0.003499222394,26.42212712
0.003554765607,28.25628404
0.003610308819,30.1601244
0.003665852032,32.20066998
0.003721395245,34.45109176
0.003776938457,36.72769999
0.00383248167,38.73468489
0.003888024882,40.70549236
0.003943568095,42.76908337
0.003999111308,45.03106626
0.00405465452,46.97471049
0.004110197733,48.83407125
0.004165740945,50.74212789
0.004221284158,52.65219845
0.004276827371,54.64828613
0.004332370583,56.36930037
0.004387913796,58.02394639
0.004443457008,59.78419359
0.004499000221,61.81797136
0.004554543434,63.52839336
0.004610086646,64.95056156
0.004665629859,66.16706777
0.004721173071,67.60094913
0.004776716284,69.01246424
0.004832259497,70.2721024
0.004887802709,71.51393408
0.004943345922,72.88666511
0.004998889134,74.28723701
0.005054432347,75.78356007
0.00510997556,77.35218442
0.005165518772,79.12022375
0.005221061985,80.97203865
0.005276605197,83.19100361
0.00533214841,85.61567797
0.005387691623,88.27224698
0.005443234835,90.90563458
0.005498778048,93.66721937
0.00555432126,96.57709667
0.005609864473,99.54985519
0.005665407686,102.6147501
0.005720950898,105.4790456
0.005776494111,108.5603534
0.005832037324,111.5038721
0.005887580536,114.2489206
0.005943123749,117.0131509
0.005998666961,120.0460689
0.006054210174,122.8738998
0.006109753387,125.5893416
0.006165296599,127.9997534
0.006220839812,130.2134516
0.006276383024,132.3817972
0.006331926237,134.8385181
0.00638746945,136.7361799
0.006443012662,138.6592862
0.006498555875,140.476261
0.006554099087,142.5284509
0.0066096423,144.4689348
0.006665185513,146.3863526
0.006720728725,147.957387
0.006776271938,149.7844221
0.00683181515,151.4361642
0.006887358363,153.2914736
0.006942901576,154.9813438
0.006998444788,156.8409045
0.007053988001,158.7397202
0.007109531213,160.8219505
0.007165074426,162.9244773
0.007220617639,165.1955295
0.007276160851,167.4905088
0.007331704064,169.7681093
0.007387247276,172.2094836
0.007442790489,175.0464735
0.007498333702,177.675265
0.007553876914,180.1566162
0.007609420127,182.8131103
0.007664963339,185.7432065
0.007720506552,188.2707096
0.007776049765,190.823055
0.007831592977,193.5360653
0.00788713619,196.1881435
0.007942679402,198.7961057
0.007998222615,201.3117171
0.008053765828,203.8179854
0.00810930904,206.2980554
0.008164852253,209.2814283
0.008220395466,212.1852311
0.008275938678,214.8227322
0.008331481891,217.6800622
0.008387025103,220.9555497
0.008442568316,224.3653749
0.008498111529,227.8920446
0.008553654741,231.8495008
0.008609197954,236.2892662
0.008664741166,240.69449
0.008720284379,245.3181447
0.008775827592,249.8625573
0.008831370804,254.6418245
0.008886914017,259.5163794
0.008942457229,264.3026827
0.008998000442,268.8954278
0.009053543655,273.3184835
0.009109086867,277.5103659
0.00916463008,281.6898093
0.009220173292,285.7535318
0.009275716505,289.8007163
0.009331259718,293.5485442
0.00938680293,297.2004784
0.009442346143,300.6174875
0.009497889355,304.0570882
0.009553432568,307.0893107
0.009608975781,310.0334247
0.009664518993,313.1616
0.009720062206,316.3327587
0.009775605418,319.4204066
0.009831148631,322.4246438
0.009886691844,325.4708353
0.009942235056,328.7113762
0.009997778269,332.4147926
0.01005332148,336.1431556
0.01010886469,340.0153881
0.01016440791,343.9978222
0.01021995112,348.6324634
0.01027549433,353.363833
0.01033103754,358.1656981
0.01038658076,362.9270936
0.01044212397,368.1787853
0.01049766718,373.43707
0.01055321039,378.854563
0.01060875361,384.2561992
0.01066429682,389.5227167
0.01071984003,394.9204928
0.01077538325,400.6010126
0.01083092646,405.940348
0.01088646967,411.3864669
0.01094201288,416.5913545
0.0109975561,421.8812692
0.01105309931,426.975242
0.01110864252,431.8631026
0.01116418573,436.1858273
0.01121972895,440.6631929
0.01127527216,445.1457467
0.01133081537,449.427972
0.01138635858,453.1129853
0.0114419018,456.8083909
0.01149744501,460.6486784
0.01155298822,464.2537615
0.01160853143,467.719579
0.01166407465,471.0432007
0.01171961786,474.0568719
0.01177516107,477.2413943
0.01183070428,480.6418619
0.0118862475,483.8009876
0.01194179071,486.8435924
0.01199733392,489.9922856
0.01205287714,493.5955746
0.01210842035,497.1778068
0.01216396356,500.7837888
0.01221950677,504.6657581
0.01227504999,508.9209911
0.0123305932,513.3874571
0.01238613641,518.118305
0.01244167962,522.7426484
0.01249722284,527.5594198
0.01255276605,532.6637661
0.01260830926,538.209898
0.01266385247,543.310989
0.01271939569,548.7870503
0.0127749389,554.5259277
0.01283048211,560.545997
0.01288602532,566.5737606
0.01294156854,572.8820541
0.01299711175,578.9940878
0.01305265496,585.3532045
0.01310819817,592.1105855
0.01316374139,598.9583169
0.0132192846,605.9057451
0.01327482781,613.1740293
0.01333037103,620.8343891
0.01338591424,628.458685
0.01344145745,636.1975407
0.01349700066,644.1315105
0.01355254388,651.8178521
0.01360808709,659.7380406
0.0136636303,667.6408393
0.01371917351,675.3352312
0.01377471673,682.8429639
0.01383025994,690.5076715
0.01388580315,698.2643511
0.01394134636,705.9726591
0.01399688958,713.1394847
0.01405243279,720.3188383
0.014107976,727.8118094
0.01416351921,735.3073206
0.01421906243,742.2832718
0.01427460564,749.1628867
0.01433014885,755.8967537
0.01438569206,762.929335
0.01444123528,769.8231248
0.01449677849,776.2404585
0.0145523217,782.9096348
0.01460786492,789.5047024
0.01466340813,795.9508203
0.01471895134,802.3975949
0.01477449455,809.0390137
0.01483003777,815.3405968
0.01488558098,821.6396879
0.01494112419,828.244758
0.0149966674,834.747597
0.01505221062,841.0263329
0.01510775383,847.3478028
0.01516329704,853.8083478
0.01521884025,860.2165331
0.01527438347,866.5669402
0.01532992668,873.0405228
0.01538546989,879.2783036
0.0154410131,885.6364361
0.01549655632,892.0639699
0.01555209953,898.2874897
0.01560764274,904.319542
0.01566318595,910.6117209
0.01571872917,916.7612801
0.01577427238,922.6401426
0.01582981559,928.3494549
0.0158853588,933.7586885
0.01594090202,939.6764684
0.01599644523,945.4934056
0.01605198844,950.9524486
0.01610753166,956.1203152
0.01616307487,961.0367342
0.01621861808,966.4099213
0.01627416129,971.5575685
0.01632970451,976.3198052
0.01638524772,981.3790429
0.01644079093,986.4386445
0.01649633414,991.1413232
0.01655187736,996.2858081
0.01660742057,1001.462105
0.01666296378,1006.793649
0.01671850699,1012.346753
0.01677405021,1018.475246
0.01682959342,1024.669051
0.01688513663,1030.909675
0.01694067984,1037.187935
0.01699622306,1043.737984
0.01705176627,1050.200399
0.01710730948,1056.887852
0.01716285269,1063.519259
0.01721839591,1069.670254
0.01727393912,1075.925978
0.01732948233,1082.638724
0.01738502555,1089.073995
0.01744056876,1095.331913
0.01749611197,1101.963734
0.01755165518,1108.768144
0.0176071984,1115.259182
0.01766274161,1121.813005
0.01771828482,1128.332171
0.01777382803,1134.943755
0.01782937125,1141.708975
0.01788491446,1148.284043
0.01794045767,1154.647445
0.01799600088,1160.673557
0.0180515441,1167.135917
0.01810708731,1173.419007
0.01816263052,1179.602833
0.01821817373,1185.991572
0.01827371695,1193.021186
0.01832926016,1200.067161
0.01838480337,1208.132187
0.01844034658,1216.658737
0.0184958898,1225.613939
0.01855143301,1234.762852
0.01860697622,1244.848843
0.01866251944,1255.069932
0.01871806265,1265.637208
0.01877360586,1276.092282
0.01882914907,1286.940566
0.01888469229,1297.821433
0.0189402355,1308.447152
0.01899577871,1318.837739
0.01905132192,1329.130468
0.01910686514,1339.392255
0.01916240835,1349.560284
0.01921795156,1359.19154
0.01927349477,1368.622865
0.01932903799,1378.257358
0.0193845812,1387.897149
0.01944012441,1397.171552
0.01949566762,1406.081429
0.01955121084,1414.937871
0.01960675405,1423.79454
0.01966229726,1432.476358
0.01971784047,1440.799938
0.01977338369,1449.055142
0.0198289269,1456.934971
0.01988447011,1465.190193
0.01994001333,1473.152028
0.01999555654,1480.851423
0.02005109975,1488.475238
0.02010664296,1496.49868
0.02016218618,1504.183213
0.02021772939,1512.192408
0.0202732726,1520.081611
0.02032881581,1528.038465
0.02038435903,1536.050818
0.02043990224,1544.582299
0.02049544545,1552.813613
0.02055098866,1561.026076
0.02060653188,1569.338624
0.02066207509,1577.943851
0.0207176183,1586.580562
0.02077316151,1595.086847
0.02082870473,1603.430212
0.02088424794,1611.975897
0.02093979115,1620.269501
0.02099533436,1628.50214
0.02105087758,1636.494475
0.02110642079,1644.26126
0.021161964,1652.156647
0.02121750722,1659.812983
0.02127305043,1667.200777
0.02132859364,1674.260112
0.02138413685,1681.184805
0.02143968007,1688.018723
0.02149522328,1694.802595
0.02155076649,1701.216146
0.0216063097,1707.119473
0.02166185292,1713.041413
0.02171739613,1719.101294
0.02177293934,1724.871555
0.02182848255,1730.340691
0.02188402577,1735.594772
0.02193956898,1740.888487
0.02199511219,1745.702486
0.0220506554,1750.266757
0.02210619862,1754.330746
0.02216174183,1757.84092
0.02221728504,1761.13284
0.02227282825,1764.271905
0.02232837147,1766.578519
0.02238391468,1768.940017
0.02243945789,1771.147134
0.0224950011,1773.310834
0.02255054432,1775.212602
0.02260608753,1777.122557
0.02266163074,1779.026868
0.02271717396,1780.992821
0.02277271717,1782.963967
0.02282826038,1785.153836
0.02288380359,1786.958413
0.02293934681,1788.900325
0.02299489002,1791.249714
0.02305043323,1794.217261
0.02310597644,1796.912676
0.02316151966,1799.731877
0.02321706287,1802.520223
0.02327260608,1805.626551
0.02332814929,1808.607095
0.02338369251,1811.433048
0.02343923572,1814.151179
0.02349477893,1816.663797
0.02355032214,1819.168835
0.02360586536,1821.539614
0.02366140857,1823.166153
0.02371695178,1824.797927
0.02377249499,1826.525076
0.02382803821,1828.118776
0.02388358142,1829.357718
0.02393912463,1830.437796
0.02399466785,1831.333524
0.02405021106,1832.07876
0.02410575427,1832.951735
0.02416129748,1833.242173
0.0242168407,1833.400361
0.02427238391,1833.484085
0.02432792712,1833.496905
0.02438347033,1832.929975
0.02443901355,1832.288657
0.02449455676,1831.573819
0.02455009997,1830.529767
0.02460564318,1829.321688
0.0246611864,1828.110284
0.02471672961,1826.193206
0.02477227282,1824.113116
0.02482781603,1822.127713
0.02488335925,1820.073531
0.02493890246,1817.437106
0.02499444567,1814.636216
0.02504998888,1811.786026
0.0251055321,1809.002643
0.02516107531,1805.954131
0.02521661852,1802.656461
0.02527216174,1799.190687
0.02532770495,1795.825713
0.02538324816,1792.718057
0.02543879137,1789.404338
0.02549433459,1785.730553
0.0255498778,1782.487178
0.02560542101,1779.731042
0.02566096422,1776.831928
0.02571650744,1773.974381
0.02577205065,1771.536376
0.02582759386,1769.20186
0.02588313707,1767.042332
0.02593868029,1765.462502
0.0259942235,1764.086764
0.02604976671,1762.39904
0.02610530992,1761.344908
0.02616085314,1760.337046
0.02621639635,1759.395083
0.02627193956,1758.63026
0.02632748277,1758.080692
0.02638302599,1757.355516
0.0264385692,1757.007058
0.02649411241,1756.830475
0.02654965563,1756.258342
0.02660519884,1755.448357
0.02666074205,1754.730744
0.02671628526,1753.82034
0.02677182848,1752.617415
0.02682737169,1751.346731
0.0268829149,1750.128831
0.02693845811,1748.617651
0.02699400133,1746.780473
0.02704954454,1744.602017
0.02710508775,1742.1733
0.02716063096,1739.619414
0.02721617418,1736.750505
0.02727171739,1733.400858
0.0273272606,1729.701663
0.02738280381,1726.189474
0.02743834703,1722.615158
0.02749389024,1718.711499
0.02754943345,1714.448871
0.02760497666,1710.449139
0.02766051988,1706.338128
0.02771606309,1702.501276
0.0277716063,1698.693509
0.02782714951,1694.813978
0.02788269273,1691.11919
0.02793823594,1688.06818
0.02799377915,1684.890639
0.02804932237,1681.480054
0.02810486558,1678.24865
0.02816040879,1675.513994
0.028215952,1672.65434
0.02827149522,1670.030271
0.02832703843,1667.31445
0.02838258164,1664.390561
0.02843812485,1661.153378
0.02849366807,1658.116978
0.02854921128,1654.818607
0.02860475449,1651.125447
0.0286602977,1647.228847
0.02871584092,1642.963094
0.02877138413,1638.407278
0.02882692734,1633.624503
0.02888247055,1628.249286
0.02893801377,1622.675913
0.02899355698,1616.849947
0.02904910019,1610.942988
0.0291046434,1604.288315
0.02916018662,1597.16995
0.02921572983,1590.042222
0.02927127304,1582.523486
0.02932681626,1574.952414
0.02938235947,1566.961253
0.02943790268,1558.882192
0.02949344589,1550.358386
0.02954898911,1541.677464
0.02960453232,1532.799182
0.02966007553,1523.681043
0.02971561874,1514.429201
0.02977116196,1505.203508
0.02982670517,1495.634149
0.02988224838,1485.909753
0.02993779159,1476.065375
0.02999333481,1466.240419
0.03004887802,1456.195373
0.03010442123,1446.519599
0.03015996444,1436.566325
0.03021550766,1426.6299
0.03027105087,1416.439417
0.03032659408,1406.591517
0.03038213729,1396.501214
0.03043768051,1386.22254
0.03049322372,1375.922211
0.03054876693,1365.800475
0.03060431015,1355.352782
0.03065985336,1345.23944
0.03071539657,1334.7957
0.03077093978,1324.215445
0.030826483,1313.387933
0.03088202621,1303.111905
0.03093756942,1292.467312
0.03099311263,1281.534247
0.03104865585,1270.26329
0.03110419906,1258.998652
0.03115974227,1247.482522
0.03121528548,1236.160052
0.0312708287,1224.621385
0.03132637191,1212.275907
0.03138191512,1200.029337
0.03143745833,1188.066542
0.03149300155,1175.863157
0.03154854476,1163.137006
0.03160408797,1150.268072
0.03165963118,1137.296332
0.0317151744,1124.475857
0.03177071761,1111.488854
0.03182626082,1098.237139
0.03188180404,1084.577857
0.03193734725,1071.852105
0.03199289046,1059.321534
0.03204843367,1046.787507
0.03210397689,1034.441233
0.0321595201,1023.662119
0.03221506331,1013.670283
0.03227060652,1005.077506
0.03232614974,997.6379598
0.03238169295,991.1215238
0.03243723616,985.302305
0.03249277937,980.0235962
0.03254832259,975.04317
0.0326038658,969.9236221
0.03265940901,964.9968677
0.03271495222,960.3810478
0.03277049544,955.3648292
0.03282603865,950.0847933
0.03288158186,944.8687722
0.03293712507,939.3009322
0.03299266829,933.4188019
0.0330482115,927.5331912
0.03310375471,921.3289056
0.03315929793,914.7821107
0.03321484114,908.2927886
0.03327038435,902.1054751
0.03332592756,895.948577
0.03338147078,889.6464365
0.03343701399,883.7652611
0.0334925572,878.159025
0.03354810041,872.6463234
0.03360364363,867.2805022
0.03365918684,862.1524796
0.03371473005,856.9792459
0.03377027326,852.3750024
0.03382581648,848.1320818
0.03388135969,843.5754874
0.0339369029,838.6884474
0.03399244611,834.439912
0.03404798933,830.1851112
0.03410353254,825.6189026
0.03415907575,820.9043817
0.03421461896,816.6392835
0.03427016218,812.0929414
0.03432570539,807.5290784
0.0343812486,802.6181711
0.03443679181,797.3672666
0.03449233503,791.9925046
0.03454787824,786.8910865
0.03460342145,781.0392665
0.03465896467,774.9353592
0.03471450788,768.5764642
0.03477005109,762.0759437
0.0348255943,755.2072354
0.03488113752,748.3431949
0.03493668073,741.2275443
0.03499222394,733.6278358
0.03504776715,725.9687165
0.03510331037,718.4972622
0.03515885358,710.3695946
0.03521439679,702.1239009
0.03526994,693.7315751
0.03532548322,685.5339985
0.03538102643,677.0906299
0.03543656964,668.4661762
0.03549211285,659.574645
0.03554765607,650.8397344
0.03560319928,642.5584125
0.03565874249,634.4544395
0.0357142857,626.2424732
0.03576982892,617.8628228
0.03582537213,610.1936745
0.03588091534,602.8291643
0.03593645856,595.5387675
0.03599200177,588.6551342
0.03604754498,582.6585645
0.03610308819,577.0588805
0.03615863141,571.8173291
0.03621417462,567.416253
0.03626971783,563.6283625
0.03632526104,560.1843226
0.03638080426,557.6841531
0.03643634747,555.5809669
0.03649189068,553.7638181
0.03654743389,552.1984431
0.03660297711,551.4597588
0.03665852032,550.7495472
0.03671406353,549.8279709
0.03676960674,549.0540091
0.03682514996,548.5234283
0.03688069317,547.9186661
0.03693623638,547.2408548
0.03699177959,546.3640143
0.03704732281,545.1456173
0.03710286602,543.9988175
0.03715840923,542.974299
0.03721395245,541.6061489
0.03726949566,540.0263482
0.03732503887,538.3273975
0.03738058208,536.7458817
0.0374361253,534.6824541
0.03749166851,532.3991247
0.03754721172,529.7086802
0.03760275493,526.6499753
0.03765829815,523.5404715
0.03771384136,519.9420446
0.03776938457,515.933843
0.03782492778,512.0785299
0.037880471,508.4783409
0.03793601421,504.5289852
0.03799155742,500.3692829
0.03804710063,496.3939864
0.03810264385,492.1481913
0.03815818706,488.1828914
0.03821373027,484.5821349
0.03826927348,480.8537568
0.0383248167,476.716689
0.03838035991,472.8631442
0.03843590312,469.2782956
0.03849144634,465.5515499
0.03854698955,461.8643642
0.03860253276,458.4273149
0.03865807597,455.0986817
0.03871361919,451.77817
0.0387691624,448.8367138
0.03882470561,445.9552648
0.03888024882,442.8524908
0.03893579204,440.3760173
0.03899133525,438.3512982
0.03904687846,436.336655
0.03910242167,434.3384331
0.03915796489,432.5692146
0.0392135081,431.3212598
0.03926905131,429.9903682
0.03932459452,428.9028577
0.03938013774,427.7434253
0.03943568095,426.7264106
0.03949122416,425.8033676
0.03954676737,425.0049397
0.03960231059,423.9156232
0.0396578538,422.8542142
0.03971339701,422.0270487
0.03976894023,421.1250955
0.03982448344,419.9153086
0.03988002665,418.8772126
0.03993556986,417.9360384
0.03999111308,417.0563097
0.04004665629,416.2091152
0.0401021995,415.4600484
0.04015774271,414.4907653
0.04021328593,413.8123191
0.04026882914,413.1111315
0.04032437235,412.4211251
0.04037991556,411.5426109
0.04043545878,410.6924458
0.04049100199,409.8763204
0.0405465452,409.0088216
0.04060208841,408.0852943
0.04065763163,407.0763982
0.04071317484,405.7919239
0.04076871805,404.5696954
0.04082426126,403.595968
